397.3200,0.6296
400.2000,0.6000
403.0900,0.5294
405.9700,0.5238
408.8500,0.4815
411.7400,0.4533
414.6300,0.4059
417.5200,0.3881
420.4000,0.3772
423.2900,0.3687
426.1900,0.3673
429.0800,0.3651
431.9700,0.3561
434.8700,0.3586
437.7600,0.3486
440.6600,0.3477
443.5600,0.3515
446.4500,0.3551
449.3500,0.3475
452.2500,0.3430
455.1600,0.3465
458.0600,0.3408
460.9600,0.3326
463.8700,0.3429
466.7700,0.3379
469.6800,0.3340
472.5900,0.3297
475.5000,0.3310
478.4100,0.3288
481.3200,0.3274
484.2300,0.3270
487.1400,0.3226
490.0600,0.3250
492.9700,0.3223
495.8900,0.3241
498.8000,0.3240
501.7200,0.3195
504.6400,0.3225
507.5600,0.3236
510.4800,0.3179
513.4000,0.3129
516.3300,0.3160
519.2500,0.3109
522.1800,0.3082
525.1000,0.3038
528.0300,0.3025
530.9600,0.2994
533.8900,0.2957
536.8200,0.2936
539.7500,0.2896
542.6800,0.2868
545.6200,0.2852
548.5500,0.2895
551.4900,0.2847
554.4300,0.2816
557.3600,0.2807
560.3000,0.2787
563.2400,0.2766
566.1800,0.2732
569.1200,0.2712
572.0700,0.2691
575.0100,0.2631
577.9600,0.2609
580.9000,0.2572
583.8500,0.2546
586.8000,0.2500
589.7500,0.2490
592.7000,0.2460
595.6500,0.2429
598.6000,0.2429
601.5500,0.2435
604.5100,0.2362
607.4600,0.2344
610.4200,0.2368
613.3800,0.2340
616.3400,0.2291
619.3000,0.2273
622.2600,0.2243
625.2200,0.2247
628.1800,0.2216
631.1500,0.2177
634.1100,0.2157
637.0800,0.2122
640.0400,0.2094
643.0100,0.2103
645.9800,0.2085
648.9500,0.2084
651.9200,0.2070
654.8900,0.2073
657.8700,0.2102
660.8400,0.2091
663.8100,0.2081
666.7900,0.2117
669.7700,0.2161
672.7500,0.2234
675.7300,0.2306
678.7100,0.2370
681.6900,0.2470
684.6700,0.2563
687.6500,0.2704
690.6400,0.2873
693.6200,0.3038
696.6100,0.3254
699.6000,0.3494
702.5800,0.3792
705.5700,0.4087
708.5700,0.4440
711.5600,0.4736
714.5500,0.5164
717.5400,0.5478
720.5400,0.5852
723.5300,0.6176
726.5300,0.6578
729.5300,0.6800
732.5300,0.6902
735.5300,0.7117
738.5300,0.7234
741.5300,0.7443
744.5300,0.7584
747.5400,0.7617
750.5400,0.7733
753.5500,0.7816
756.5600,0.7881
759.5600,0.8004
762.5700,0.7989
765.5800,0.8053
768.6000,0.8115
771.6100,0.8096
774.6200,0.8167
777.6400,0.8214
780.6500,0.8258
783.6700,0.8278
786.6800,0.8299
789.7000,0.8333
792.7200,0.8393
795.7400,0.8439
798.7700,0.8384
801.7900,0.8419
804.8100,0.8458
807.8400,0.8497
810.8600,0.8595
813.8900,0.8473
816.9200,0.8596
819.9500,0.8654
822.9800,0.8545
826.0100,0.8674
829.0400,0.8669
832.0700,0.8583
835.1100,0.8714
838.1400,0.8763
841.1800,0.8694
844.2200,0.8750
847.2500,0.8764
850.2900,0.8713
853.3300,0.8753
856.3700,0.8720
859.4200,0.8768
862.4600,0.8844
865.5000,0.8895
868.5500,0.8953
871.6000,0.8797
874.6400,0.8989
877.6900,0.8830
880.7400,0.8946
883.7900,0.8921
886.8400,0.8810
889.9000,0.8909
892.9500,0.8731
896.0100,0.8861
899.0600,0.8799
902.1200,0.8808
905.1800,0.8810
908.2400,0.8815
911.3000,0.8790
914.3600,0.8869
917.4200,0.8759
920.4800,0.8760
923.5500,0.8835
926.6100,0.8792
929.6800,0.8707
932.7400,0.8744
935.8100,0.8843
938.8800,0.8852
941.9500,0.8812
945.0200,0.8718
948.1000,0.8824
951.1700,0.8833
954.2400,0.8671
957.3200,0.8916
960.4000,0.8750
963.4700,0.8750
966.5500,0.8562
969.6300,0.8571
972.7100,0.8582
975.7900,0.8583
978.8800,0.8678
981.9600,0.8435
985.0500,0.8440
988.1300,0.8544
991.2200,0.8557
994.3100,0.8370
997.4000,0.8488
1000.4900,0.8395
1003.5800,0.8000
