##TITLE= 2018-08-16_016, position (511, 511)
##JCAMP-DX= 5.1
##DATA TYPE= UV/VIS SPECTRUM
##ORIGIN= CIMA
##OWNER= CIMA
##DATA CLASS= XYDATA
##SPECTROMETER/DATASYSTEM= SpecimIQ/Hyperlyse1.1
##SAMPLING PROCEDURE= MODE=reflection
##XUNITS= NANOMETERS
##YUNITS= REFLECTANCE
##XFACTOR= 1.0
##YFACTOR= 1.0
##FIRSTX= 397.32
##LASTX= 1003.58
##NPOINTS= 204
##FIRSTY= 0.6296296
##XYDATA= (X++(Y..Y))
397.32 0.6296296
400.2 0.6
403.09 0.5294118
405.97 0.52380955
408.85 0.4814815
411.74 0.45333335
414.63 0.4059406
417.52 0.3880597
420.4 0.37724552
423.29 0.36868685
426.19 0.36725664
429.08 0.36507937
431.97 0.3561151
434.87 0.35855263
437.76 0.34862384
440.66 0.34770116
443.56 0.35149863
446.45 0.3550914
449.35 0.3475
452.25 0.34299517
455.16 0.34651163
458.06 0.34075725
460.96 0.33261803
463.87 0.3429158
466.77 0.33791748
469.68 0.33396226
472.59 0.32971016
475.5 0.33101046
478.41 0.3288364
481.32 0.32736155
484.23 0.3270142
487.14 0.32262996
490.06 0.32496306
492.97 0.32234958
495.89 0.32409972
498.8 0.3239625
501.72 0.3194805
504.64 0.32245922
507.56 0.32360098
510.48 0.31791222
513.4 0.31293303
516.33 0.31602708
519.25 0.3109151
522.18 0.30818966
525.1 0.30379745
528.03 0.30246913
530.96 0.29939517
533.89 0.29574677
536.82 0.29360464
539.75 0.28964862
542.68 0.2867854
545.62 0.2851886
548.55 0.28947368
551.49 0.28469113
554.43 0.2815534
557.36 0.28073233
560.3 0.27868852
563.24 0.27659574
566.18 0.2731872
569.12 0.27121463
572.07 0.2691358
575.01 0.2630719
577.96 0.26086956
580.9 0.2571885
583.85 0.2545744
586.8 0.25
589.75 0.24901186
592.7 0.24604431
595.65 0.24287975
598.6 0.24287975
601.55 0.24347825
604.51 0.23617694
607.46 0.23436263
610.42 0.2367798
613.38 0.23404256
616.34 0.22906794
619.3 0.2273086
622.26 0.22432859
625.22 0.22468354
628.18 0.22160883
631.15 0.21773554
634.11 0.21570182
637.08 0.21224165
640.04 0.20943245
643.01 0.21027288
645.98 0.20853463
648.95 0.20843472
651.92 0.20698053
654.89 0.20734695
657.87 0.21018063
660.84 0.2090535
663.81 0.20812604
666.79 0.21166667
669.77 0.2160804
672.75 0.22335026
675.73 0.2306383
678.71 0.23695466
681.69 0.24698795
684.67 0.2562554
687.65 0.27036396
690.64 0.28733623
693.62 0.30377525
696.61 0.32537577
699.6 0.3493761
702.58 0.37915543
705.57 0.40871936
708.57 0.4440367
711.56 0.47363552
714.55 0.5163704
717.54 0.5477767
720.54 0.58524907
723.53 0.617561
726.53 0.6577646
729.53 0.6800401
732.53 0.6902119
735.53 0.7116751
738.53 0.72336066
741.53 0.74430645
744.53 0.7583682
747.54 0.7616525
750.54 0.773262
753.55 0.78162163
756.56 0.7881449
759.56 0.8004459
762.57 0.79886365
765.58 0.8053302
768.6 0.811543
771.61 0.80963856
774.62 0.8167282
777.64 0.82138366
780.65 0.82580644
783.67 0.8278146
786.68 0.829932
789.7 0.8333333
792.72 0.83931136
795.74 0.84388804
798.77 0.8383686
801.79 0.8418605
804.81 0.845787
807.84 0.8496732
810.86 0.85953176
813.89 0.84734136
816.92 0.8596491
819.95 0.86535007
822.98 0.854512
826.01 0.86742425
829.04 0.86692756
832.07 0.85828346
835.11 0.87142855
838.14 0.8763103
841.18 0.86937904
844.22 0.875
847.25 0.8764045
850.29 0.87126434
853.33 0.8752941
856.37 0.87198067
859.42 0.87684727
862.46 0.8844221
865.5 0.88946015
868.55 0.89528793
871.6 0.87967914
874.64 0.8989071
877.69 0.88300836
880.74 0.8945869
883.79 0.8921283
886.84 0.88095236
889.9 0.8909091
892.95 0.873065
896.01 0.886076
899.06 0.8798701
902.12 0.8807947
905.18 0.88095236
908.24 0.8815331
911.3 0.8790036
914.36 0.8868613
917.42 0.87593985
920.48 0.875969
923.55 0.88353413
926.61 0.87916666
929.68 0.87068963
932.74 0.8744395
935.81 0.8842593
938.88 0.8851675
941.95 0.8811881
945.02 0.8717949
948.1 0.88235295
951.17 0.8833333
954.24 0.867052
957.32 0.8915663
960.4 0.875
963.47 0.875
966.55 0.8561644
969.63 0.85714287
972.71 0.85820895
975.79 0.8582677
978.88 0.8677686
981.96 0.84347826
985.05 0.8440367
988.13 0.8543689
991.22 0.8556701
994.31 0.8369565
997.4 0.8488372
1000.49 0.83950615
1003.58 0.8
##END= 
