397.0000,0.6296
399.9901,0.6000
402.9803,0.5294
405.9704,0.5238
408.9606,0.4815
411.9507,0.4533
414.9409,0.4059
417.9310,0.3881
420.9212,0.3772
423.9113,0.3687
426.9015,0.3673
429.8916,0.3651
432.8818,0.3561
435.8719,0.3586
438.8621,0.3486
441.8522,0.3477
444.8424,0.3515
447.8325,0.3551
450.8227,0.3475
453.8128,0.3430
456.8029,0.3465
459.7931,0.3408
462.7833,0.3326
465.7734,0.3429
468.7635,0.3379
471.7537,0.3340
474.7438,0.3297
477.7340,0.3310
480.7242,0.3288
483.7143,0.3274
486.7044,0.3270
489.6946,0.3226
492.6847,0.3250
495.6749,0.3223
498.6650,0.3241
501.6552,0.3240
504.6453,0.3195
507.6355,0.3225
510.6256,0.3236
513.6158,0.3179
516.6059,0.3129
519.5961,0.3160
522.5862,0.3109
525.5764,0.3082
528.5665,0.3038
531.5566,0.3025
534.5468,0.2994
537.5369,0.2957
540.5271,0.2936
543.5172,0.2896
546.5074,0.2868
549.4976,0.2852
552.4877,0.2895
555.4778,0.2847
558.4680,0.2816
561.4581,0.2807
564.4483,0.2787
567.4384,0.2766
570.4286,0.2732
573.4187,0.2712
576.4089,0.2691
579.3990,0.2631
582.3892,0.2609
585.3793,0.2572
588.3694,0.2546
591.3596,0.2500
594.3497,0.2490
597.3399,0.2460
600.3301,0.2429
603.3202,0.2429
606.3104,0.2435
609.3005,0.2362
612.2906,0.2344
615.2808,0.2368
618.2709,0.2340
621.2611,0.2291
624.2512,0.2273
627.2414,0.2243
630.2315,0.2247
633.2217,0.2216
636.2119,0.2177
639.2020,0.2157
642.1921,0.2122
645.1823,0.2094
648.1724,0.2103
651.1625,0.2085
654.1527,0.2084
657.1429,0.2070
660.1330,0.2073
663.1232,0.2102
666.1133,0.2091
669.1035,0.2081
672.0936,0.2117
675.0837,0.2161
678.0739,0.2234
681.0640,0.2306
684.0542,0.2370
687.0443,0.2470
690.0345,0.2563
693.0247,0.2704
696.0148,0.2873
699.0049,0.3038
701.9951,0.3254
704.9852,0.3494
707.9753,0.3792
710.9655,0.4087
713.9557,0.4440
716.9458,0.4736
719.9360,0.5164
722.9261,0.5478
725.9163,0.5852
728.9064,0.6176
731.8965,0.6578
734.8867,0.6800
737.8768,0.6902
740.8670,0.7117
743.8571,0.7234
746.8473,0.7443
749.8375,0.7584
752.8276,0.7617
755.8177,0.7733
758.8079,0.7816
761.7980,0.7881
764.7881,0.8004
767.7783,0.7989
770.7685,0.8053
773.7586,0.8115
776.7488,0.8096
779.7389,0.8167
782.7291,0.8214
785.7192,0.8258
788.7094,0.8278
791.6995,0.8299
794.6896,0.8333
797.6798,0.8393
800.6699,0.8439
803.6601,0.8384
806.6503,0.8419
809.6404,0.8458
812.6306,0.8497
815.6207,0.8595
818.6108,0.8473
821.6010,0.8596
824.5911,0.8654
827.5813,0.8545
830.5714,0.8674
833.5616,0.8669
836.5517,0.8583
839.5419,0.8714
842.5320,0.8763
845.5222,0.8694
848.5123,0.8750
851.5024,0.8764
854.4926,0.8713
857.4828,0.8753
860.4729,0.8720
863.4631,0.8768
866.4532,0.8844
869.4434,0.8895
872.4335,0.8953
875.4236,0.8797
878.4138,0.8989
881.4039,0.8830
884.3941,0.8946
887.3842,0.8921
890.3744,0.8810
893.3645,0.8909
896.3547,0.8731
899.3448,0.8861
902.3350,0.8799
905.3251,0.8808
908.3152,0.8810
911.3054,0.8815
914.2956,0.8790
917.2857,0.8869
920.2759,0.8759
923.2660,0.8760
926.2562,0.8835
929.2463,0.8792
932.2365,0.8707
935.2266,0.8744
938.2167,0.8843
941.2069,0.8852
944.1970,0.8812
947.1872,0.8718
950.1774,0.8824
953.1675,0.8833
956.1577,0.8671
959.1478,0.8916
962.1379,0.8750
965.1281,0.8750
968.1182,0.8562
971.1084,0.8571
974.0985,0.8582
977.0887,0.8583
980.0788,0.8678
983.0690,0.8435
986.0591,0.8440
989.0493,0.8544
992.0394,0.8557
995.0295,0.8370
998.0197,0.8488
1001.0098,0.8395
1004.0000,0.8000
