397.32000732421875,0.62962961196899414
400.20001220703125,0.60000002384185791
403.08999633789062,0.52941179275512695
405.97000122070312,0.52380955219268799
408.85000610351562,0.48148149251937866
411.739990234375,0.45333334803581238
414.6300048828125,0.40594059228897095
417.51998901367188,0.38805970549583435
420.39999389648438,0.37724551558494568
423.29000854492188,0.36868685483932495
426.19000244140625,0.36725664138793945
429.07998657226562,0.3650793731212616
431.97000122070312,0.35611510276794434
434.8699951171875,0.35855263471603394
437.760009765625,0.3486238420009613
440.66000366210938,0.34770116209983826
443.55999755859375,0.35149863362312317
446.45001220703125,0.355091392993927
449.35000610351562,0.34749999642372131
452.25,0.34299516677856445
455.16000366210938,0.34651163220405579
458.05999755859375,0.34075725078582764
460.95999145507812,0.33261802792549133
463.8699951171875,0.34291580319404602
466.76998901367188,0.33791747689247131
469.67999267578125,0.33396226167678833
472.58999633789062,0.32971015572547913
475.5,0.33101046085357666
478.41000366210938,0.32883641123771667
481.32000732421875,0.32736155390739441
484.23001098632812,0.32701420783996582
487.1400146484375,0.32262995839118958
490.05999755859375,0.32496306300163269
492.97000122070312,0.32234957814216614
495.8900146484375,0.32409971952438354
498.79998779296875,0.3239625096321106
501.72000122070312,0.31948050856590271
504.6400146484375,0.32245922088623047
507.55999755859375,0.32360097765922546
510.48001098632812,0.31791222095489502
513.4000244140625,0.31293302774429321
516.33001708984375,0.31602707505226135
519.25,0.31091511249542236
522.17999267578125,0.30818966031074524
525.0999755859375,0.30379745364189148
528.030029296875,0.30246913433074951
530.96002197265625,0.29939517378807068
533.8900146484375,0.29574677348136902
536.82000732421875,0.29360464215278625
539.75,0.2896486222743988
542.67999267578125,0.28678539395332336
545.6199951171875,0.28518858551979065
548.54998779296875,0.28947368264198303
551.489990234375,0.28469112515449524
554.42999267578125,0.28155338764190674
557.3599853515625,0.28073233366012573
560.29998779296875,0.27868852019309998
563.239990234375,0.27659574151039124
566.17999267578125,0.27318719029426575
569.1199951171875,0.27121463418006897
572.07000732421875,0.26913580298423767
575.010009765625,0.26307189464569092
577.96002197265625,0.26086956262588501
580.9000244140625,0.25718849897384644
583.8499755859375,0.25457438826560974
586.79998779296875,0.25
589.75,0.24901185929775238
592.70001220703125,0.24604430794715881
595.6500244140625,0.24287974834442139
598.5999755859375,0.24287974834442139
601.54998779296875,0.24347825348377228
604.510009765625,0.23617693781852722
607.46002197265625,0.23436263203620911
610.41998291015625,0.23677979409694672
613.3800048828125,0.23404255509376526
616.34002685546875,0.22906793653964996
619.29998779296875,0.22730860114097595
622.260009765625,0.22432859241962433
625.219970703125,0.22468353807926178
628.17999267578125,0.22160883247852325
631.1500244140625,0.21773554384708405
634.1099853515625,0.21570181846618652
637.08001708984375,0.21224164962768555
640.03997802734375,0.209432452917099
643.010009765625,0.21027287840843201
645.97998046875,0.20853462815284729
648.95001220703125,0.20843471586704254
651.91998291015625,0.20698052644729614
654.8900146484375,0.20734694600105286
657.8699951171875,0.2101806253194809
660.84002685546875,0.20905350148677826
663.80999755859375,0.20812603831291199
666.78997802734375,0.21166667342185974
669.77001953125,0.21608039736747742
672.75,0.22335025668144226
675.72998046875,0.2306382954120636
678.71002197265625,0.23695465922355652
681.69000244140625,0.2469879537820816
684.66998291015625,0.2562553882598877
687.6500244140625,0.27036395668983459
690.6400146484375,0.28733623027801514
693.6199951171875,0.30377525091171265
696.6099853515625,0.3253757655620575
699.5999755859375,0.34937611222267151
702.58001708984375,0.37915542721748352
705.57000732421875,0.40871936082839966
708.57000732421875,0.44403669238090515
711.55999755859375,0.47363552451133728
714.54998779296875,0.51637041568756104
717.53997802734375,0.54777669906616211
720.53997802734375,0.58524906635284424
723.530029296875,0.6175609827041626
726.530029296875,0.65776461362838745
729.530029296875,0.68004012107849121
732.530029296875,0.69021189212799072
735.530029296875,0.71167510747909546
738.530029296875,0.72336065769195557
741.530029296875,0.74430644512176514
744.530029296875,0.75836819410324097
747.53997802734375,0.76165252923965454
750.53997802734375,0.77326202392578125
753.54998779296875,0.78162163496017456
756.55999755859375,0.78814488649368286
759.55999755859375,0.80044591426849365
762.57000732421875,0.79886364936828613
765.58001708984375,0.80533021688461304
768.5999755859375,0.81154298782348633
771.6099853515625,0.80963855981826782
774.6199951171875,0.81672817468643188
777.6400146484375,0.82138365507125854
780.6500244140625,0.82580643892288208
783.66998291015625,0.82781457901000977
786.67999267578125,0.82993197441101074
789.70001220703125,0.83333331346511841
792.719970703125,0.83931136131286621
795.739990234375,0.8438880443572998
798.77001953125,0.83836859464645386
801.78997802734375,0.84186047315597534
804.80999755859375,0.84578698873519897
807.84002685546875,0.84967321157455444
810.8599853515625,0.85953176021575928
813.8900146484375,0.84734135866165161
816.91998291015625,0.85964912176132202
819.95001220703125,0.86535006761550903
822.97998046875,0.85451197624206543
826.010009765625,0.86742424964904785
829.03997802734375,0.86692756414413452
832.07000732421875,0.85828346014022827
835.1099853515625,0.87142854928970337
838.1400146484375,0.87631028890609741
841.17999267578125,0.86937904357910156
844.219970703125,0.875
847.25,0.8764045238494873
850.28997802734375,0.87126433849334717
853.33001708984375,0.87529408931732178
856.3699951171875,0.87198066711425781
859.41998291015625,0.87684726715087891
862.46002197265625,0.88442212343215942
865.5,0.88946014642715454
868.54998779296875,0.89528793096542358
871.5999755859375,0.87967914342880249
874.6400146484375,0.8989071249961853
877.69000244140625,0.88300836086273193
880.739990234375,0.89458692073822021
883.78997802734375,0.89212828874588013
886.84002685546875,0.88095235824584961
889.9000244140625,0.89090907573699951
892.95001220703125,0.87306499481201172
896.010009765625,0.88607597351074219
899.05999755859375,0.87987011671066284
902.1199951171875,0.8807947039604187
905.17999267578125,0.88095235824584961
908.239990234375,0.88153308629989624
911.29998779296875,0.87900358438491821
914.3599853515625,0.88686132431030273
917.41998291015625,0.87593984603881836
920.47998046875,0.87596899271011353
923.54998779296875,0.88353413343429565
926.6099853515625,0.87916666269302368
929.67999267578125,0.87068963050842285
932.739990234375,0.87443947792053223
935.80999755859375,0.88425928354263306
938.8800048828125,0.88516747951507568
941.95001220703125,0.88118809461593628
945.02001953125,0.87179487943649292
948.0999755859375,0.88235294818878174
951.16998291015625,0.88333332538604736
954.239990234375,0.86705201864242554
957.32000732421875,0.89156627655029297
960.4000244140625,0.875
963.469970703125,0.875
966.54998779296875,0.85616439580917358
969.6300048828125,0.8571428656578064
972.71002197265625,0.85820895433425903
975.78997802734375,0.85826772451400757
978.8800048828125,0.86776858568191528
981.96002197265625,0.84347826242446899
985.04998779296875,0.84403669834136963
988.1300048828125,0.85436892509460449
991.219970703125,0.85567009449005127
994.30999755859375,0.83695650100708008
997.4000244140625,0.84883719682693481
1000.489990234375,0.83950614929199219
1003.5800170898438,0.80000001192092896